n Geopotential_Altitude[m] Geometric_Altitude[m]
======================================
1	79301.79	80301.65
2 	73721.58	74584.91
3 	71115.75	71918.79
4 	68618.43	69365.77
5 	66210.99	66906.53
6 	63890.03	64537.43
7 	61651.77	62254.39
8	59492.50	60053.46
9 	57408.61	57930.78
10 	55396.62	55882.68
11 	53453.20	53905.62
12 	51575.15	51996.21
13 	49767.41	50159.36
14 	48048.70	48413.94
15 	46416.22	46756.98
16 	44881.17	45199.69
17 	43440.23	43738.55
18 	42085.00	42364.93
19 	40808.05	41071.20
20 	39602.76	39850.56
21 	38463.25	38696.94
22 	37384.22	37604.95
23 	36360.94	36569.72
24 	35389.15	35586.89
25 	34465.00	34652.52
26 	33585.02	33763.05
27 	32746.04	32915.27
28 	31945.53	32106.57
29 	31177.59	31330.96
30	30438.54	30584.71	
31	29726.69	29866.09	
32	29040.48	29173.50	
33	28378.46	28505.47	
34	27739.29	27860.64	
35	27121.74	27237.73	
36	26524.63	26635.56	
37	25946.90	26053.04	
38	25387.55	25489.15	
39	24845.63	24942.93	
40	24320.28	24413.50	
41	23810.67	23900.02	
42	23316.04	23401.71	
43	22835.68	22917.85	
44	22368.91	22447.75	
45	21915.16	21990.82	
46	21473.98	21546.62	
47	21045.00	21114.77	
48	20627.87	20694.90	
49	20222.24	20286.66	
50	19827.95	19889.88	
51	19443.55	19503.09	
52	19068.35	19125.61	
53	18701.27	18756.34	
54	18341.27	18394.25	
55	17987.41	18038.35	
56	17638.78	17687.77	
57	17294.53	17341.62	
58	16953.83	16999.08	
59	16616.09	16659.55	
60	16281.10	16322.83	
61	15948.85	15988.88	
62	15619.30	15657.70	
63	15292.44	15329.24	
64	14968.24	15003.50	
65	14646.68	14680.44	
66	14327.75	14360.05	
67	14011.41	14042.30	
68	13697.65	13727.18	
69	13386.45	13414.65	
70	13077.79	13104.70	
71	12771.64	12797.30	
72	12467.99	12492.44	
73	12166.81	12190.10	
74	11868.08	11890.24	
75	11571.79	11592.86	
76	11277.92	11297.93	
77	10986.70	11005.69	
78	10696.22	10714.22	
79	10405.61	10422.64	
80	10114.89	10130.98	
81	9824.08		9839.26	
82	9533.20		9547.49	
83	9242.26		9255.70	
84	8951.30		8963.90	
85	8660.32		8672.11	
86	8369.35		8380.36	
87	8078.41		8088.67	
88	7787.51		7797.04	
89	7496.68		7505.51	
90	7205.93		7214.09	
91	6915.29		6922.80	
92	6624.76		6631.66	
93	6334.38		6340.68	
94	6044.15		6049.89	
95	5754.10		5759.30	
96	5464.60		5469.30	
97	5176.77		5180.98	
98	4892.26		4896.02	
99	4612.58		4615.92	
100	4338.77		4341.73	
101	4071.80		4074.41	
102	3812.53		3814.82	
103	3561.70		3563.69	
104	3319.94		3321.67	
105	3087.75		3089.25	
106	2865.54		2866.83	
107	2653.58		2654.69	
108	2452.04		2452.99	
109	2260.99		2261.80	
110	2080.41		2081.09	
111	1910.19		1910.76	
112	1750.14		1750.63	
113	1600.04		1600.44	
114	1459.58		1459.91	
115	1328.43		1328.70	
116	1206.21		1206.44	
117	1092.54		1092.73	
118	987.00		987.15	
119	889.17		889.29	
120	798.62		798.72	
121	714.94		715.02	
122	637.70		637.76	
123	566.49		566.54	
124	500.91		500.95	
125	440.58		440.61	
126	385.14		385.16	
127	334.22		334.24	
128	287.51		287.52	
129	244.68		244.69	
130	205.44		205.44	
131	169.50		169.51	
132	136.62		136.62	
133	106.54		106.54	
134	79.04		79.04	
135	53.92		53.92	
136	30.96		30.96	
137	10.00		10.00	
